,Unnamed: 0,EI,id,long,lat,Time
0,1,0.2874015748031496,466880,121.442,24.9976,2010-01
1,2,0.2456692913385827,466900,121.4489,25.1649,2010-01
2,3,0.9523809523809524,466910,121.5297,25.1826,2010-01
3,4,0.15984251968503935,466920,121.5149,25.0377,2010-01
4,5,1.0,466930,121.5445,25.1621,2010-01
5,6,0.9388888888888891,466940,121.7405,25.1333,2010-01
6,7,0.0,466950,122.0797,25.628,2010-01
7,8,0.0,466990,121.6133,23.9751,2010-01
8,10,0.5087301587301589,467060,121.8574,24.5967,2010-01
9,11,0.4401574803149607,467080,121.7565,24.764,2010-01
10,12,0.0,467110,118.2893,24.4073,2010-01
11,13,0.0,467300,119.6675,23.257,2010-01
12,14,0.0,467350,119.5631,23.5655,2010-01
13,15,0.0,467410,120.2048,22.9932,2010-01
14,16,0.0,467420,120.2367,23.0384,2010-01
15,17,0.0,467440,120.3157,22.566,2010-01
16,18,0.0,467480,120.4329,23.4959,2010-01
17,19,0.0,467490,120.6841,24.1457,2010-01
18,20,0.0,467530,120.8132,23.5082,2010-01
19,21,0.0,467540,120.9038,22.3557,2010-01
20,22,0.0,467550,120.9595,23.4876,2010-01
21,23,0.0023622047244094267,467571,121.0142,24.8279,2010-01
22,24,0.0,467590,120.7463,22.0039,2010-01
23,25,0.15275590551181106,467610,121.3734,23.0975,2010-01
24,26,0.3653543307086615,467620,121.5583,22.037,2010-01
25,27,0.0,467650,120.9081,23.8813,2010-01
26,28,0.0,467660,121.1546,22.7522,2010-01
27,29,0.0,467770,120.5234,24.256,2010-01
28,31,0.0,467990,119.9234,26.1693,2010-01
29,32,0.2795275590551181,C0A520,121.402,24.9749,2010-01
30,33,0.0,C0A530,121.7094,24.9382,2010-01
31,34,0.4409448818897638,C0A540,121.7459,24.8928,2010-01
32,35,0.5873015873015873,C0A550,121.8237,24.9712,2010-01
33,36,0.5433070866141733,C0A560,121.5028,24.7762,2010-01
34,37,0.7244094488188977,C0A570,121.598,24.8482,2010-01
35,38,0.4763779527559055,C0A580,121.5463,24.9224,2010-01
36,39,-1.094488188976378,C0A640,121.6629,24.9939,2010-01
37,40,1.0,C0A650,121.7429,25.0027,2010-01
38,41,0.0,C0A660,121.8011,25.1132,2010-01
39,42,0.0,C0A860,121.633,25.1659,2010-01
40,43,0.0,C0A870,121.6087,25.1322,2010-01
41,44,1.0,C0A880,121.9421,25.0178,2010-01
42,45,1.0,C0A890,121.8642,25.036,2010-01
43,46,-0.33385826771653626,C0A920,121.5653,25.2638,2010-01
44,48,1.0,C0A940,121.644,25.2236,2010-01
45,49,0.0,C0A950,121.9234,25.129,2010-01
46,50,0.6889763779527559,C0A970,122.0021,25.0076,2010-01
47,51,0.0,C0A980,121.4697,25.1095,2010-01
48,52,0.0,C0A9A0,121.5429,25.078000000000007,2010-01
49,53,0.023622047244094488,C0A9B0,121.5138,25.1163,2010-01
50,54,0.0,C0A9C0,121.5372,25.1175,2010-01
51,55,0.07086614173228346,C0A9E0,121.503,25.0903,2010-01
52,56,0.011811023622047244,C0A9F0,121.5755,25.0794,2010-01
53,59,0.4330708661417323,C0AC40,121.5224,25.1757,2010-01
54,60,0.3464566929133858,C0AC60,121.3697,24.939,2010-01
55,61,0.2755905511811024,C0AC70,121.5646,25.0378,2010-01
56,62,0.2677165354330709,C0AC80,121.5757,25.0024,2010-01
57,63,0.14566929133858267,C0ACA0,121.4468,25.0515,2010-01
58,64,1.0,C0AD00,121.5019,25.2581,2010-01
59,65,0.20078740157480315,C0AD10,121.4039,25.1502,2010-01
60,66,0.1220472440944882,C0AD30,121.4723,25.0866,2010-01
61,67,0.4448818897637795,C0AD40,121.4452,24.9732,2010-01
62,68,0.12992125984251968,C0AD50,121.3463,24.9515,2010-01
63,77,0.3425196850393701,C0C460,121.3523,24.8202,2010-01
64,78,0.20866141732283466,C0C480,121.3232,24.9924,2010-01
65,80,0.4251968503937008,C0C520,121.1853,24.9676,2010-01
66,81,0.2204724409448819,C0C540,121.226,25.0478,2010-01
67,82,0.27165354330708663,C0C590,121.1533,25.0271,2010-01
68,84,0.1968503937007874,C0C630,121.2655,24.8829,2010-01
69,85,0.35826771653543305,C0C650,121.2146,24.8975,2010-01
70,89,0.32677165354330706,C0D360,121.2086,24.6783,2010-01
71,90,0.27165354330708663,C0D390,121.1739,24.7982,2010-01
72,92,0.2519685039370079,C0D480,121.1508,24.8497,2010-01
73,93,0.15354330708661418,C0D540,121.1169,24.7112,2010-01
74,94,0.0,C0D550,121.1161,24.527,2010-01
75,95,0.011811023622047244,C0D560,121.0579,24.7671,2010-01
76,96,0.0,C0D570,120.9055,24.7469,2010-01
77,97,0.12992125984251968,C0D580,121.0252,24.735,2010-01
78,98,0.06299212598425198,C0D590,120.9772,24.8707,2010-01
79,101,0.0,C0E420,120.8889,24.709,2010-01
80,102,0.09448818897637797,C0E430,121.0002,24.6018,2010-01
81,108,0.0,C0E610,120.9302,24.4513,2010-01
82,109,0.0,C0E730,120.9122,24.6882,2010-01
83,255,0.07480314960629922,C0R280,120.8368,22.0761,2010-01
84,256,0.0,C0R350,120.7358,21.9218,2010-01
85,257,0.0,C0R360,120.8022,21.9456,2010-01
86,258,0.0,C0R370,120.8446,21.992,2010-01
87,259,0.0,C0R380,120.5896,22.3694,2010-01
88,260,0.0,C0R400,120.6927,22.1902,2010-01
89,261,0.5157480314960631,C0R420,120.8406,22.1678,2010-01
90,278,0.0,C0S680,121.0392,22.9198,2010-01
91,279,0.0,C0S690,120.9853,22.609,2010-01
92,280,0.11811023622047245,C0S700,121.0056,22.6849,2010-01
93,281,0.0,C0S710,121.123,22.9177,2010-01
94,282,0.4606299212598425,C0S730,121.4753,22.6672,2010-01
95,283,0.0,C0S740,121.2095,23.1196,2010-01
96,284,0.0,C0S750,120.9861,23.2484,2010-01
97,285,0.0,C0S760,121.1262,23.0691,2010-01
98,286,0.0,C0S770,120.9433,22.4785,2010-01
99,287,0.0,C0S790,120.9669,22.5381,2010-01
100,288,0.0,C0S810,121.304,22.9727,2010-01
101,289,0.0,C0S830,121.412,23.2868,2010-01
102,290,0.0,C0S840,120.8892,22.2797,2010-01
103,293,0.0,C0T820,121.4956,24.1796,2010-01
104,294,0.0,C0T870,121.5089,23.9356,2010-01
105,296,-0.26089238845144364,C0T960,121.425,23.6607,2010-01
106,297,0.2795275590551181,C0T9A0,121.5398,23.8099,2010-01
107,298,0.3622047244094488,C0T9B0,121.5372,23.9919,2010-01
108,299,0.0,C0T9D0,121.741,24.2668,2010-01
109,300,0.38976377952755903,C0T9E0,121.582,23.8806,2010-01
110,301,0.0,C0T9F0,121.5425,23.7971,2010-01
111,302,0.12992125984251968,C0T9G0,121.4201,23.7353,2010-01
112,303,0.8818897637795275,C0T9H0,121.5274,23.6829,2010-01
113,304,0.8937007874015748,C0T9I0,121.5148,23.5839,2010-01
114,305,0.4448818897637795,C0T9M0,121.495,23.4552,2010-01
115,307,0.4055118110236221,C0U600,121.7655,24.8175,2010-01
116,309,0.9370078740157479,C0U650,121.5871,24.6753,2010-01
117,310,0.1848728642121316,C0U710,121.5257,24.5055,2010-01
118,311,0.1062992125984252,C0U750,121.9531,24.8417,2010-01
119,312,0.5944881889763779,C0U760,121.8331,24.5219,2010-01
120,313,0.0,C0U770,121.8102,24.4494,2010-01
121,392,0.0,C0Z050,121.2132,23.3457,2010-01
122,393,0.0,C0Z061,121.3397,23.3215,2010-01
123,394,0.0,C0Z070,121.3741,23.4681,2010-01
0,1,1.0,466880,121.442,24.9976,2010-02
1,2,0.8078740157480314,466900,121.4489,25.1649,2010-02
2,3,1.0,466910,121.5297,25.1826,2010-02
3,4,1.0,466920,121.5149,25.0377,2010-02
4,5,1.0,466930,121.5445,25.1621,2010-02
5,6,0.5746031746031744,466940,121.7405,25.1333,2010-02
6,7,0.27401574803149603,466950,122.0797,25.628,2010-02
7,8,0.0,466990,121.6133,23.9751,2010-02
8,10,0.6645669291338583,467060,121.8574,24.5967,2010-02
9,11,0.7472440944881891,467080,121.7565,24.764,2010-02
10,12,0.08582677165354335,467110,118.2893,24.4073,2010-02
11,13,0.0,467300,119.6675,23.257,2010-02
12,14,0.0,467350,119.5631,23.5655,2010-02
13,15,0.0,467410,120.2048,22.9932,2010-02
14,16,0.0,467420,120.2367,23.0384,2010-02
15,17,0.0,467440,120.3157,22.566,2010-02
16,18,0.0,467480,120.4329,23.4959,2010-02
17,19,0.2622047244094488,467490,120.6841,24.1457,2010-02
18,20,0.8427524227740761,467530,120.8132,23.5082,2010-02
19,21,0.0,467540,120.9038,22.3557,2010-02
20,22,0.0,467550,120.9595,23.4876,2010-02
21,23,1.0,467571,121.0142,24.8279,2010-02
22,24,0.0,467590,120.7463,22.0039,2010-02
23,25,0.0,467610,121.3734,23.0975,2010-02
24,26,0.2440944881889764,467620,121.5583,22.037,2010-02
25,27,0.2377952755905512,467650,120.9081,23.8813,2010-02
26,28,0.0,467660,121.1546,22.7522,2010-02
27,29,0.06850393700787404,467770,120.5234,24.256,2010-02
28,31,0.5503937007874016,467990,119.9234,26.1693,2010-02
29,32,0.84251968503937,C0A520,121.402,24.9749,2010-02
30,33,1.0,C0A530,121.7094,24.9382,2010-02
31,34,1.0,C0A540,121.7459,24.8928,2010-02
32,35,0.4841269841269841,C0A550,121.8237,24.9712,2010-02
33,36,1.0,C0A560,121.5028,24.7762,2010-02
34,37,1.0,C0A570,121.598,24.8482,2010-02
35,38,1.0,C0A580,121.5463,24.9224,2010-02
36,39,1.0,C0A640,121.6629,24.9939,2010-02
37,40,0.9523809523809524,C0A650,121.7429,25.0027,2010-02
38,41,0.0,C0A660,121.8011,25.1132,2010-02
39,42,0.0,C0A860,121.633,25.1659,2010-02
40,43,0.4133858267716535,C0A870,121.6087,25.1322,2010-02
41,44,0.9246031746031746,C0A880,121.9421,25.0178,2010-02
42,45,1.0,C0A890,121.8642,25.036,2010-02
43,46,-6.4304461942257225,C0A920,121.5653,25.2638,2010-02
44,48,0.8492063492063492,C0A940,121.644,25.2236,2010-02
45,49,0.5196850393700787,C0A950,121.9234,25.129,2010-02
46,50,1.0,C0A970,122.0021,25.0076,2010-02
47,51,0.0,C0A980,121.4697,25.1095,2010-02
48,52,0.7952755905511811,C0A9A0,121.5429,25.078000000000007,2010-02
49,53,0.7440944881889764,C0A9B0,121.5138,25.1163,2010-02
50,54,0.6417322834645669,C0A9C0,121.5372,25.1175,2010-02
51,55,0.8385826771653543,C0A9E0,121.503,25.0903,2010-02
52,56,0.8503937007874016,C0A9F0,121.5755,25.0794,2010-02
53,59,0.2598425196850393,C0AC40,121.5224,25.1757,2010-02
54,60,1.0,C0AC60,121.3697,24.939,2010-02
55,61,1.0,C0AC70,121.5646,25.0378,2010-02
56,62,0.6535433070866141,C0AC80,121.5757,25.0024,2010-02
57,63,0.8070866141732284,C0ACA0,121.4468,25.0515,2010-02
58,64,1.0,C0AD00,121.5019,25.2581,2010-02
59,65,0.7992125984251969,C0AD10,121.4039,25.1502,2010-02
60,66,0.8464566929133859,C0AD30,121.4723,25.0866,2010-02
61,67,1.0,C0AD40,121.4452,24.9732,2010-02
62,68,1.0,C0AD50,121.3463,24.9515,2010-02
63,77,0.9325396825396826,C0C460,121.3523,24.8202,2010-02
64,78,1.0,C0C480,121.3232,24.9924,2010-02
65,80,1.0,C0C520,121.1853,24.9676,2010-02
66,81,1.0,C0C540,121.226,25.0478,2010-02
67,82,0.9370078740157479,C0C590,121.1533,25.0271,2010-02
68,84,1.0,C0C630,121.2655,24.8829,2010-02
69,85,1.0,C0C650,121.2146,24.8975,2010-02
70,89,1.0,C0D360,121.2086,24.6783,2010-02
71,90,1.0,C0D390,121.1739,24.7982,2010-02
72,92,1.0,C0D480,121.1508,24.8497,2010-02
73,93,1.0,C0D540,121.1169,24.7112,2010-02
74,94,0.8492063492063492,C0D550,121.1161,24.527,2010-02
75,95,1.0,C0D560,121.0579,24.7671,2010-02
76,96,0.968503937007874,C0D570,120.9055,24.7469,2010-02
77,97,1.0,C0D580,121.0252,24.735,2010-02
78,98,0.9094488188976378,C0D590,120.9772,24.8707,2010-02
79,101,0.9133858267716536,C0E420,120.8889,24.709,2010-02
80,102,0.9000000000000009,C0E430,121.0002,24.6018,2010-02
81,108,1.0,C0E610,120.9302,24.4513,2010-02
82,109,1.0,C0E730,120.9122,24.6882,2010-02
83,255,0.0,C0R280,120.8368,22.0761,2010-02
84,256,0.0,C0R350,120.7358,21.9218,2010-02
85,257,0.0,C0R360,120.8022,21.9456,2010-02
86,258,0.0,C0R370,120.8446,21.992,2010-02
87,259,0.0,C0R380,120.5896,22.3694,2010-02
88,260,0.0,C0R400,120.6927,22.1902,2010-02
89,261,0.0,C0R420,120.8406,22.1678,2010-02
90,278,0.05905511811023623,C0S680,121.0392,22.9198,2010-02
91,279,0.0,C0S690,120.9853,22.609,2010-02
92,280,0.0,C0S700,121.0056,22.6849,2010-02
93,281,0.0,C0S710,121.123,22.9177,2010-02
94,282,0.07086614173228346,C0S730,121.4753,22.6672,2010-02
95,283,0.0,C0S740,121.2095,23.1196,2010-02
96,284,0.8228346456692913,C0S750,120.9861,23.2484,2010-02
97,285,0.0,C0S760,121.1262,23.0691,2010-02
98,286,0.0,C0S770,120.9433,22.4785,2010-02
99,287,-0.0,C0S790,120.9669,22.5381,2010-02
100,288,0.0,C0S810,121.304,22.9727,2010-02
101,289,0.531496062992126,C0S830,121.412,23.2868,2010-02
102,290,0.0,C0S840,120.8892,22.2797,2010-02
103,293,0.7677165354330708,C0T820,121.4956,24.1796,2010-02
104,294,0.2125984251968504,C0T870,121.5089,23.9356,2010-02
105,296,0.0,C0T960,121.425,23.6607,2010-02
106,297,0.2440944881889764,C0T9A0,121.5398,23.8099,2010-02
107,298,0.7047244094488189,C0T9B0,121.5372,23.9919,2010-02
108,299,0.0,C0T9D0,121.741,24.2668,2010-02
109,300,0.9527559055118109,C0T9E0,121.582,23.8806,2010-02
110,301,0.2952755905511811,C0T9F0,121.5425,23.7971,2010-02
111,302,0.0905511811023622,C0T9G0,121.4201,23.7353,2010-02
112,303,0.7952755905511811,C0T9H0,121.5274,23.6829,2010-02
113,304,0.9763779527559056,C0T9I0,121.5148,23.5839,2010-02
114,305,0.8976377952755905,C0T9M0,121.495,23.4552,2010-02
115,307,0.8858267716535433,C0U600,121.7655,24.8175,2010-02
116,309,1.0,C0U650,121.5871,24.6753,2010-02
117,310,0.4094488188976378,C0U710,121.5257,24.5055,2010-02
118,311,0.14960629921259844,C0U750,121.9531,24.8417,2010-02
119,312,0.3070866141732284,C0U760,121.8331,24.5219,2010-02
120,313,0.0,C0U770,121.8102,24.4494,2010-02
121,392,0.0,C0Z050,121.2132,23.3457,2010-02
122,393,0.0,C0Z061,121.3397,23.3215,2010-02
123,394,0.0,C0Z070,121.3741,23.4681,2010-02
0,1,0.0,466880,121.442,24.9976,2010-03
1,2,0.0,466900,121.4489,25.1649,2010-03
2,3,0.1377952755905512,466910,121.5297,25.1826,2010-03
3,4,0.0,466920,121.5149,25.0377,2010-03
4,5,0.0,466930,121.5445,25.1621,2010-03
5,6,0.2118110236220473,466940,121.7405,25.1333,2010-03
6,7,0.07637795275590553,466950,122.0797,25.628,2010-03
7,8,0.0,466990,121.6133,23.9751,2010-03
8,10,0.0,467060,121.8574,24.5967,2010-03
9,11,0.0,467080,121.7565,24.764,2010-03
10,12,0.0,467110,118.2893,24.4073,2010-03
11,13,0.0,467300,119.6675,23.257,2010-03
12,14,0.0,467350,119.5631,23.5655,2010-03
13,15,0.0,467410,120.2048,22.9932,2010-03
14,16,0.0,467420,120.2367,23.0384,2010-03
15,17,0.0,467440,120.3157,22.566,2010-03
16,18,0.0,467480,120.4329,23.4959,2010-03
17,19,0.0,467490,120.6841,24.1457,2010-03
18,20,0.0,467530,120.8132,23.5082,2010-03
19,21,-0.0,467540,120.9038,22.3557,2010-03
20,22,0.0,467550,120.9595,23.4876,2010-03
21,23,0.0,467571,121.0142,24.8279,2010-03
22,24,0.0,467590,120.7463,22.0039,2010-03
23,25,0.0,467610,121.3734,23.0975,2010-03
24,26,0.2598425196850393,467620,121.5583,22.037,2010-03
25,27,0.0,467650,120.9081,23.8813,2010-03
26,28,0.0,467660,121.1546,22.7522,2010-03
27,29,0.0,467770,120.5234,24.256,2010-03
28,31,0.6692913385826772,467990,119.9234,26.1693,2010-03
29,32,0.0,C0A520,121.402,24.9749,2010-03
30,33,0.0,C0A530,121.7094,24.9382,2010-03
31,34,0.0,C0A540,121.7459,24.8928,2010-03
32,35,0.05118110236220472,C0A550,121.8237,24.9712,2010-03
33,36,0.0,C0A560,121.5028,24.7762,2010-03
34,37,0.0,C0A570,121.598,24.8482,2010-03
35,38,0.0,C0A580,121.5463,24.9224,2010-03
36,39,0.0,C0A640,121.6629,24.9939,2010-03
37,40,-0.0,C0A650,121.7429,25.0027,2010-03
38,41,0.4094488188976378,C0A660,121.8011,25.1132,2010-03
39,42,1.0,C0A860,121.633,25.1659,2010-03
40,43,0.0,C0A870,121.6087,25.1322,2010-03
41,44,0.0,C0A880,121.9421,25.0178,2010-03
42,45,0.0,C0A890,121.8642,25.036,2010-03
43,46,0.2125984251968504,C0A920,121.5653,25.2638,2010-03
44,48,0.2598425196850393,C0A940,121.644,25.2236,2010-03
45,49,0.0,C0A950,121.9234,25.129,2010-03
46,50,0.0,C0A970,122.0021,25.0076,2010-03
47,51,0.0,C0A980,121.4697,25.1095,2010-03
48,52,0.0,C0A9A0,121.5429,25.078000000000007,2010-03
49,53,0.0,C0A9B0,121.5138,25.1163,2010-03
50,54,0.0,C0A9C0,121.5372,25.1175,2010-03
51,55,0.0,C0A9E0,121.503,25.0903,2010-03
52,56,0.0,C0A9F0,121.5755,25.0794,2010-03
53,59,0.0,C0AC40,121.5224,25.1757,2010-03
54,60,0.0,C0AC60,121.3697,24.939,2010-03
55,61,0.0,C0AC70,121.5646,25.0378,2010-03
56,62,0.0,C0AC80,121.5757,25.0024,2010-03
57,63,0.0,C0ACA0,121.4468,25.0515,2010-03
58,64,0.2559055118110236,C0AD00,121.5019,25.2581,2010-03
59,65,0.0,C0AD10,121.4039,25.1502,2010-03
60,66,0.0,C0AD30,121.4723,25.0866,2010-03
61,67,0.0,C0AD40,121.4452,24.9732,2010-03
62,68,0.0,C0AD50,121.3463,24.9515,2010-03
63,77,0.0,C0C460,121.3523,24.8202,2010-03
64,78,0.0,C0C480,121.3232,24.9924,2010-03
65,80,0.05511811023622047,C0C520,121.1853,24.9676,2010-03
66,81,0.0,C0C540,121.226,25.0478,2010-03
67,82,0.1062992125984252,C0C590,121.1533,25.0271,2010-03
68,84,0.0,C0C630,121.2655,24.8829,2010-03
69,85,0.0,C0C650,121.2146,24.8975,2010-03
70,89,0.0,C0D360,121.2086,24.6783,2010-03
71,90,0.06299212598425198,C0D390,121.1739,24.7982,2010-03
72,92,0.05118110236220472,C0D480,121.1508,24.8497,2010-03
73,93,0.0,C0D540,121.1169,24.7112,2010-03
74,94,0.0984251968503937,C0D550,121.1161,24.527,2010-03
75,95,0.0984251968503937,C0D560,121.0579,24.7671,2010-03
76,96,0.0,C0D570,120.9055,24.7469,2010-03
77,97,0.2519685039370079,C0D580,121.0252,24.735,2010-03
78,98,0.0,C0D590,120.9772,24.8707,2010-03
79,101,0.0,C0E420,120.8889,24.709,2010-03
80,102,0.07716535433070859,C0E430,121.0002,24.6018,2010-03
81,108,0.0,C0E610,120.9302,24.4513,2010-03
82,109,0.0,C0E730,120.9122,24.6882,2010-03
83,255,0.0,C0R280,120.8368,22.0761,2010-03
84,256,0.0,C0R350,120.7358,21.9218,2010-03
85,257,0.0,C0R360,120.8022,21.9456,2010-03
86,258,0.0,C0R370,120.8446,21.992,2010-03
87,259,0.0,C0R380,120.5896,22.3694,2010-03
88,260,-0.0,C0R400,120.6927,22.1902,2010-03
89,261,0.0,C0R420,120.8406,22.1678,2010-03
90,278,0.0,C0S680,121.0392,22.9198,2010-03
91,279,0.0,C0S690,120.9853,22.609,2010-03
92,280,0.0,C0S700,121.0056,22.6849,2010-03
93,281,0.0,C0S710,121.123,22.9177,2010-03
94,282,0.0,C0S730,121.4753,22.6672,2010-03
95,283,0.0,C0S740,121.2095,23.1196,2010-03
96,284,0.0,C0S750,120.9861,23.2484,2010-03
97,285,0.0,C0S760,121.1262,23.0691,2010-03
98,286,0.0,C0S770,120.9433,22.4785,2010-03
99,287,0.0,C0S790,120.9669,22.5381,2010-03
100,288,0.4055118110236221,C0S810,121.304,22.9727,2010-03
101,289,0.0,C0S830,121.412,23.2868,2010-03
102,290,-0.0,C0S840,120.8892,22.2797,2010-03
103,293,0.0,C0T820,121.4956,24.1796,2010-03
104,294,0.0,C0T870,121.5089,23.9356,2010-03
105,296,-0.0,C0T960,121.425,23.6607,2010-03
106,297,0.0,C0T9A0,121.5398,23.8099,2010-03
107,298,0.08267716535433071,C0T9B0,121.5372,23.9919,2010-03
108,299,0.2283464566929134,C0T9D0,121.741,24.2668,2010-03
109,300,0.0,C0T9E0,121.582,23.8806,2010-03
110,301,0.0,C0T9F0,121.5425,23.7971,2010-03
111,302,0.0,C0T9G0,121.4201,23.7353,2010-03
112,303,0.0,C0T9H0,121.5274,23.6829,2010-03
113,304,0.0,C0T9I0,121.5148,23.5839,2010-03
114,305,0.0,C0T9M0,121.495,23.4552,2010-03
115,307,0.0,C0U600,121.7655,24.8175,2010-03
116,309,0.0,C0U650,121.5871,24.6753,2010-03
117,310,0.0,C0U710,121.5257,24.5055,2010-03
118,311,0.0,C0U750,121.9531,24.8417,2010-03
119,312,0.0,C0U760,121.8331,24.5219,2010-03
120,313,0.0,C0U770,121.8102,24.4494,2010-03
121,392,0.0,C0Z050,121.2132,23.3457,2010-03
122,393,0.0,C0Z061,121.3397,23.3215,2010-03
123,394,0.0,C0Z070,121.3741,23.4681,2010-03
0,1,0.25695538057742817,466880,121.442,24.9976,2010-04
1,2,0.5645669291338582,466900,121.4489,25.1649,2010-04
2,3,1.0,466910,121.5297,25.1826,2010-04
3,4,0.13713910761154846,466920,121.5149,25.0377,2010-04
4,5,0.7220472440944881,466930,121.5445,25.1621,2010-04
5,6,0.7333333333333343,466940,121.7405,25.1333,2010-04
6,7,1.0,466950,122.0797,25.628,2010-04
7,8,0.0,466990,121.6133,23.9751,2010-04
8,10,0.8141732283464568,467060,121.8574,24.5967,2010-04
9,11,0.2566929133858267,467080,121.7565,24.764,2010-04
10,12,0.2598425196850393,467110,118.2893,24.4073,2010-04
11,13,0.0,467300,119.6675,23.257,2010-04
12,14,0.0,467350,119.5631,23.5655,2010-04
13,15,0.0,467410,120.2048,22.9932,2010-04
14,16,0.0,467420,120.2367,23.0384,2010-04
15,17,0.0,467440,120.3157,22.566,2010-04
16,18,0.0,467480,120.4329,23.4959,2010-04
17,19,0.5008923884514439,467490,120.6841,24.1457,2010-04
18,20,1.0,467530,120.8132,23.5082,2010-04
19,21,-0.13280839895013125,467540,120.9038,22.3557,2010-04
20,22,0.4926246719160105,467550,120.9595,23.4876,2010-04
21,23,0.65748031496063,467571,121.0142,24.8279,2010-04
22,24,0.0,467590,120.7463,22.0039,2010-04
23,25,0.0,467610,121.3734,23.0975,2010-04
24,26,0.1732283464566929,467620,121.5583,22.037,2010-04
25,27,0.7881889763779527,467650,120.9081,23.8813,2010-04
26,28,0.0,467660,121.1546,22.7522,2010-04
27,29,0.2118110236220473,467770,120.5234,24.256,2010-04
28,31,1.0,467990,119.9234,26.1693,2010-04
29,32,0.31496062992125984,C0A520,121.402,24.9749,2010-04
30,33,0.4133858267716535,C0A530,121.7094,24.9382,2010-04
31,34,0.5433070866141733,C0A540,121.7459,24.8928,2010-04
32,35,1.0,C0A550,121.8237,24.9712,2010-04
33,36,0.2125984251968504,C0A560,121.5028,24.7762,2010-04
34,37,0.3543307086614173,C0A570,121.598,24.8482,2010-04
35,38,0.33858267716535434,C0A580,121.5463,24.9224,2010-04
36,39,0.4960629921259842,C0A640,121.6629,24.9939,2010-04
37,40,0.7047244094488189,C0A650,121.7429,25.0027,2010-04
38,41,1.0,C0A660,121.8011,25.1132,2010-04
39,42,0.0,C0A860,121.633,25.1659,2010-04
40,43,0.2440944881889764,C0A870,121.6087,25.1322,2010-04
